 # Detector n:            1   PrSource  (integrated over solid angle)
 # N. of energy intervals         100
  1.000E-03  1.035E-03  0.000E+00  0.000E+00
  1.035E-03  1.070E-03  0.000E+00  0.000E+00
  1.070E-03  1.107E-03  0.000E+00  0.000E+00
  1.107E-03  1.146E-03  0.000E+00  0.000E+00
  1.146E-03  1.185E-03  0.000E+00  0.000E+00
  1.185E-03  1.226E-03  0.000E+00  0.000E+00
  1.226E-03  1.269E-03  0.000E+00  0.000E+00
  1.269E-03  1.313E-03  0.000E+00  0.000E+00
  1.313E-03  1.358E-03  0.000E+00  0.000E+00
  1.358E-03  1.405E-03  0.000E+00  0.000E+00
  1.405E-03  1.454E-03  0.000E+00  0.000E+00
  1.454E-03  1.504E-03  0.000E+00  0.000E+00
  1.504E-03  1.556E-03  0.000E+00  0.000E+00
  1.556E-03  1.610E-03  0.000E+00  0.000E+00
  1.610E-03  1.666E-03  0.000E+00  0.000E+00
  1.666E-03  1.723E-03  0.000E+00  0.000E+00
  1.723E-03  1.783E-03  0.000E+00  0.000E+00
  1.783E-03  1.845E-03  0.000E+00  0.000E+00
  1.845E-03  1.908E-03  0.000E+00  0.000E+00
  1.908E-03  1.974E-03  0.000E+00  0.000E+00
  1.974E-03  2.043E-03  0.000E+00  0.000E+00
  2.043E-03  2.113E-03  0.000E+00  0.000E+00
  2.113E-03  2.186E-03  0.000E+00  0.000E+00
  2.186E-03  2.262E-03  0.000E+00  0.000E+00
  2.262E-03  2.340E-03  0.000E+00  0.000E+00
  2.340E-03  2.421E-03  0.000E+00  0.000E+00
  2.421E-03  2.505E-03  0.000E+00  0.000E+00
  2.505E-03  2.592E-03  0.000E+00  0.000E+00
  2.592E-03  2.681E-03  0.000E+00  0.000E+00
  2.681E-03  2.774E-03  0.000E+00  0.000E+00
  2.774E-03  2.870E-03  0.000E+00  0.000E+00
  2.870E-03  2.969E-03  0.000E+00  0.000E+00
  2.969E-03  3.072E-03  0.000E+00  0.000E+00
  3.072E-03  3.178E-03  0.000E+00  0.000E+00
  3.178E-03  3.288E-03  0.000E+00  0.000E+00
  3.288E-03  3.402E-03  0.000E+00  0.000E+00
  3.402E-03  3.520E-03  0.000E+00  0.000E+00
  3.520E-03  3.642E-03  0.000E+00  0.000E+00
  3.642E-03  3.768E-03  0.000E+00  0.000E+00
  3.768E-03  3.898E-03  0.000E+00  0.000E+00
  3.898E-03  4.033E-03  0.000E+00  0.000E+00
  4.033E-03  4.172E-03  0.000E+00  0.000E+00
  4.172E-03  4.317E-03  0.000E+00  0.000E+00
  4.317E-03  4.466E-03  0.000E+00  0.000E+00
  4.466E-03  4.621E-03  0.000E+00  0.000E+00
  4.621E-03  4.781E-03  0.000E+00  0.000E+00
  4.781E-03  4.946E-03  0.000E+00  0.000E+00
  4.946E-03  5.117E-03  0.000E+00  0.000E+00
  5.117E-03  5.294E-03  0.000E+00  0.000E+00
  5.294E-03  5.477E-03  0.000E+00  0.000E+00
  5.477E-03  5.667E-03  0.000E+00  0.000E+00
  5.667E-03  5.863E-03  0.000E+00  0.000E+00
  5.863E-03  6.066E-03  0.000E+00  0.000E+00
  6.066E-03  6.275E-03  0.000E+00  0.000E+00
  6.275E-03  6.493E-03  0.000E+00  0.000E+00
  6.493E-03  6.717E-03  0.000E+00  0.000E+00
  6.717E-03  6.950E-03  0.000E+00  0.000E+00
  6.950E-03  7.190E-03  0.000E+00  0.000E+00
  7.190E-03  7.439E-03  0.000E+00  0.000E+00
  7.439E-03  7.696E-03  0.000E+00  0.000E+00
  7.696E-03  7.962E-03  0.000E+00  0.000E+00
  7.962E-03  8.238E-03  0.000E+00  0.000E+00
  8.238E-03  8.523E-03  0.000E+00  0.000E+00
  8.523E-03  8.818E-03  0.000E+00  0.000E+00
  8.818E-03  9.123E-03  0.000E+00  0.000E+00
  9.123E-03  9.438E-03  0.000E+00  0.000E+00
  9.438E-03  9.765E-03  0.000E+00  0.000E+00
  9.765E-03  1.010E-02  0.000E+00  0.000E+00
  1.010E-02  1.045E-02  0.000E+00  0.000E+00
  1.045E-02  1.081E-02  0.000E+00  0.000E+00
  1.081E-02  1.119E-02  0.000E+00  0.000E+00
  1.119E-02  1.158E-02  0.000E+00  0.000E+00
  1.158E-02  1.198E-02  0.000E+00  0.000E+00
  1.198E-02  1.239E-02  0.000E+00  0.000E+00
  1.239E-02  1.282E-02  0.000E+00  0.000E+00
  1.282E-02  1.326E-02  0.000E+00  0.000E+00
  1.326E-02  1.372E-02  0.000E+00  0.000E+00
  1.372E-02  1.420E-02  0.000E+00  0.000E+00
  1.420E-02  1.469E-02  0.000E+00  0.000E+00
  1.469E-02  1.519E-02  0.000E+00  0.000E+00
  1.519E-02  1.572E-02  0.000E+00  0.000E+00
  1.572E-02  1.626E-02  0.000E+00  0.000E+00
  1.626E-02  1.683E-02  0.000E+00  0.000E+00
  1.683E-02  1.741E-02  0.000E+00  0.000E+00
  1.741E-02  1.801E-02  0.000E+00  0.000E+00
  1.801E-02  1.863E-02  7.302E-03  9.900E+01
  1.863E-02  1.928E-02  3.432E+00  9.903E+00
  1.928E-02  1.995E-02  0.000E+00  0.000E+00
  1.995E-02  2.064E-02  0.000E+00  0.000E+00
  2.064E-02  2.135E-02  0.000E+00  0.000E+00
  2.135E-02  2.209E-02  0.000E+00  0.000E+00
  2.209E-02  2.285E-02  0.000E+00  0.000E+00
  2.285E-02  2.364E-02  0.000E+00  0.000E+00
  2.364E-02  2.446E-02  0.000E+00  0.000E+00
  2.446E-02  2.531E-02  0.000E+00  0.000E+00
  2.531E-02  2.618E-02  0.000E+00  0.000E+00
  2.618E-02  2.709E-02  0.000E+00  0.000E+00
  2.709E-02  2.803E-02  0.000E+00  0.000E+00
  2.803E-02  2.900E-02  0.000E+00  0.000E+00
  2.900E-02  3.000E-02  0.000E+00  0.000E+00


 # double differential distributions
 # number of solid angle intervals         100
 # Block n:            1     0.00000000      :   6.28318563E-02
  1.000E-03  1.035E-03  0.000E+00  0.000E+00  0.000E+00  6.283E-02
  1.035E-03  1.070E-03  0.000E+00  0.000E+00  0.000E+00  6.283E-02
  1.070E-03  1.107E-03  0.000E+00  0.000E+00  0.000E+00  6.283E-02
  1.107E-03  1.146E-03  0.000E+00  0.000E+00  0.000E+00  6.283E-02
  1.146E-03  1.185E-03  0.000E+00  0.000E+00  0.000E+00  6.283E-02
  1.185E-03  1.226E-03  0.000E+00  0.000E+00  0.000E+00  6.283E-02
  1.226E-03  1.269E-03  0.000E+00  0.000E+00  0.000E+00  6.283E-02
  1.269E-03  1.313E-03  0.000E+00  0.000E+00  0.000E+00  6.283E-02
  1.313E-03  1.358E-03  0.000E+00  0.000E+00  0.000E+00  6.283E-02
  1.358E-03  1.405E-03  0.000E+00  0.000E+00  0.000E+00  6.283E-02
  1.405E-03  1.454E-03  0.000E+00  0.000E+00  0.000E+00  6.283E-02
  1.454E-03  1.504E-03  0.000E+00  0.000E+00  0.000E+00  6.283E-02
  1.504E-03  1.556E-03  0.000E+00  0.000E+00  0.000E+00  6.283E-02
  1.556E-03  1.610E-03  0.000E+00  0.000E+00  0.000E+00  6.283E-02
  1.610E-03  1.666E-03  0.000E+00  0.000E+00  0.000E+00  6.283E-02
  1.666E-03  1.723E-03  0.000E+00  0.000E+00  0.000E+00  6.283E-02
  1.723E-03  1.783E-03  0.000E+00  0.000E+00  0.000E+00  6.283E-02
  1.783E-03  1.845E-03  0.000E+00  0.000E+00  0.000E+00  6.283E-02
  1.845E-03  1.908E-03  0.000E+00  0.000E+00  0.000E+00  6.283E-02
  1.908E-03  1.974E-03  0.000E+00  0.000E+00  0.000E+00  6.283E-02
  1.974E-03  2.043E-03  0.000E+00  0.000E+00  0.000E+00  6.283E-02
  2.043E-03  2.113E-03  0.000E+00  0.000E+00  0.000E+00  6.283E-02
  2.113E-03  2.186E-03  0.000E+00  0.000E+00  0.000E+00  6.283E-02
  2.186E-03  2.262E-03  0.000E+00  0.000E+00  0.000E+00  6.283E-02
  2.262E-03  2.340E-03  0.000E+00  0.000E+00  0.000E+00  6.283E-02
  2.340E-03  2.421E-03  0.000E+00  0.000E+00  0.000E+00  6.283E-02
  2.421E-03  2.505E-03  0.000E+00  0.000E+00  0.000E+00  6.283E-02
  2.505E-03  2.592E-03  0.000E+00  0.000E+00  0.000E+00  6.283E-02
  2.592E-03  2.681E-03  0.000E+00  0.000E+00  0.000E+00  6.283E-02
  2.681E-03  2.774E-03  0.000E+00  0.000E+00  0.000E+00  6.283E-02
  2.774E-03  2.870E-03  0.000E+00  0.000E+00  0.000E+00  6.283E-02
  2.870E-03  2.969E-03  0.000E+00  0.000E+00  0.000E+00  6.283E-02
  2.969E-03  3.072E-03  0.000E+00  0.000E+00  0.000E+00  6.283E-02
  3.072E-03  3.178E-03  0.000E+00  0.000E+00  0.000E+00  6.283E-02
  3.178E-03  3.288E-03  0.000E+00  0.000E+00  0.000E+00  6.283E-02
  3.288E-03  3.402E-03  0.000E+00  0.000E+00  0.000E+00  6.283E-02
  3.402E-03  3.520E-03  0.000E+00  0.000E+00  0.000E+00  6.283E-02
  3.520E-03  3.642E-03  0.000E+00  0.000E+00  0.000E+00  6.283E-02
  3.642E-03  3.768E-03  0.000E+00  0.000E+00  0.000E+00  6.283E-02
  3.768E-03  3.898E-03  0.000E+00  0.000E+00  0.000E+00  6.283E-02
  3.898E-03  4.033E-03  0.000E+00  0.000E+00  0.000E+00  6.283E-02
  4.033E-03  4.172E-03  0.000E+00  0.000E+00  0.000E+00  6.283E-02
  4.172E-03  4.317E-03  0.000E+00  0.000E+00  0.000E+00  6.283E-02
  4.317E-03  4.466E-03  0.000E+00  0.000E+00  0.000E+00  6.283E-02
  4.466E-03  4.621E-03  0.000E+00  0.000E+00  0.000E+00  6.283E-02
  4.621E-03  4.781E-03  0.000E+00  0.000E+00  0.000E+00  6.283E-02
  4.781E-03  4.946E-03  0.000E+00  0.000E+00  0.000E+00  6.283E-02
  4.946E-03  5.117E-03  0.000E+00  0.000E+00  0.000E+00  6.283E-02
  5.117E-03  5.294E-03  0.000E+00  0.000E+00  0.000E+00  6.283E-02
  5.294E-03  5.477E-03  0.000E+00  0.000E+00  0.000E+00  6.283E-02
  5.477E-03  5.667E-03  0.000E+00  0.000E+00  0.000E+00  6.283E-02
  5.667E-03  5.863E-03  0.000E+00  0.000E+00  0.000E+00  6.283E-02
  5.863E-03  6.066E-03  0.000E+00  0.000E+00  0.000E+00  6.283E-02
  6.066E-03  6.275E-03  0.000E+00  0.000E+00  0.000E+00  6.283E-02
  6.275E-03  6.493E-03  0.000E+00  0.000E+00  0.000E+00  6.283E-02
  6.493E-03  6.717E-03  0.000E+00  0.000E+00  0.000E+00  6.283E-02
  6.717E-03  6.950E-03  0.000E+00  0.000E+00  0.000E+00  6.283E-02
  6.950E-03  7.190E-03  0.000E+00  0.000E+00  0.000E+00  6.283E-02
  7.190E-03  7.439E-03  0.000E+00  0.000E+00  0.000E+00  6.283E-02
  7.439E-03  7.696E-03  0.000E+00  0.000E+00  0.000E+00  6.283E-02
  7.696E-03  7.962E-03  0.000E+00  0.000E+00  0.000E+00  6.283E-02
  7.962E-03  8.238E-03  0.000E+00  0.000E+00  0.000E+00  6.283E-02
  8.238E-03  8.523E-03  0.000E+00  0.000E+00  0.000E+00  6.283E-02
  8.523E-03  8.818E-03  0.000E+00  0.000E+00  0.000E+00  6.283E-02
  8.818E-03  9.123E-03  0.000E+00  0.000E+00  0.000E+00  6.283E-02
  9.123E-03  9.438E-03  0.000E+00  0.000E+00  0.000E+00  6.283E-02
  9.438E-03  9.765E-03  0.000E+00  0.000E+00  0.000E+00  6.283E-02
  9.765E-03  1.010E-02  0.000E+00  0.000E+00  0.000E+00  6.283E-02
  1.010E-02  1.045E-02  0.000E+00  0.000E+00  0.000E+00  6.283E-02
  1.045E-02  1.081E-02  0.000E+00  0.000E+00  0.000E+00  6.283E-02
  1.081E-02  1.119E-02  0.000E+00  0.000E+00  0.000E+00  6.283E-02
  1.119E-02  1.158E-02  0.000E+00  0.000E+00  0.000E+00  6.283E-02
  1.158E-02  1.198E-02  0.000E+00  0.000E+00  0.000E+00  6.283E-02
  1.198E-02  1.239E-02  0.000E+00  0.000E+00  0.000E+00  6.283E-02
  1.239E-02  1.282E-02  0.000E+00  0.000E+00  0.000E+00  6.283E-02
  1.282E-02  1.326E-02  0.000E+00  0.000E+00  0.000E+00  6.283E-02
  1.326E-02  1.372E-02  0.000E+00  0.000E+00  0.000E+00  6.283E-02
  1.372E-02  1.420E-02  0.000E+00  0.000E+00  0.000E+00  6.283E-02
  1.420E-02  1.469E-02  0.000E+00  0.000E+00  0.000E+00  6.283E-02
  1.469E-02  1.519E-02  0.000E+00  0.000E+00  0.000E+00  6.283E-02
  1.519E-02  1.572E-02  0.000E+00  0.000E+00  0.000E+00  6.283E-02
  1.572E-02  1.626E-02  0.000E+00  0.000E+00  0.000E+00  6.283E-02
  1.626E-02  1.683E-02  0.000E+00  0.000E+00  0.000E+00  6.283E-02
  1.683E-02  1.741E-02  0.000E+00  0.000E+00  0.000E+00  6.283E-02
  1.741E-02  1.801E-02  0.000E+00  0.000E+00  0.000E+00  6.283E-02
  1.801E-02  1.863E-02  0.000E+00  0.000E+00  0.000E+00  6.283E-02
  1.863E-02  1.928E-02  4.135E-01  4.477E+01  0.000E+00  6.283E-02
  1.928E-02  1.995E-02  0.000E+00  0.000E+00  0.000E+00  6.283E-02
  1.995E-02  2.064E-02  0.000E+00  0.000E+00  0.000E+00  6.283E-02
  2.064E-02  2.135E-02  0.000E+00  0.000E+00  0.000E+00  6.283E-02
  2.135E-02  2.209E-02  0.000E+00  0.000E+00  0.000E+00  6.283E-02
  2.209E-02  2.285E-02  0.000E+00  0.000E+00  0.000E+00  6.283E-02
  2.285E-02  2.364E-02  0.000E+00  0.000E+00  0.000E+00  6.283E-02
  2.364E-02  2.446E-02  0.000E+00  0.000E+00  0.000E+00  6.283E-02
  2.446E-02  2.531E-02  0.000E+00  0.000E+00  0.000E+00  6.283E-02
  2.531E-02  2.618E-02  0.000E+00  0.000E+00  0.000E+00  6.283E-02
  2.618E-02  2.709E-02  0.000E+00  0.000E+00  0.000E+00  6.283E-02
  2.709E-02  2.803E-02  0.000E+00  0.000E+00  0.000E+00  6.283E-02
  2.803E-02  2.900E-02  0.000E+00  0.000E+00  0.000E+00  6.283E-02
  2.900E-02  3.000E-02  0.000E+00  0.000E+00  0.000E+00  6.283E-02
  3.000E-02  3.000E-02  0.000E+00  0.000E+00  0.000E+00  6.283E-02

 # Block n:            2     6.28318563E-02  :  0.125663713    
  1.000E-03  1.035E-03  0.000E+00  0.000E+00  6.283E-02  1.257E-01
  1.035E-03  1.070E-03  0.000E+00  0.000E+00  6.283E-02  1.257E-01
  1.070E-03  1.107E-03  0.000E+00  0.000E+00  6.283E-02  1.257E-01
  1.107E-03  1.146E-03  0.000E+00  0.000E+00  6.283E-02  1.257E-01
  1.146E-03  1.185E-03  0.000E+00  0.000E+00  6.283E-02  1.257E-01
  1.185E-03  1.226E-03  0.000E+00  0.000E+00  6.283E-02  1.257E-01
  1.226E-03  1.269E-03  0.000E+00  0.000E+00  6.283E-02  1.257E-01
  1.269E-03  1.313E-03  0.000E+00  0.000E+00  6.283E-02  1.257E-01
  1.313E-03  1.358E-03  0.000E+00  0.000E+00  6.283E-02  1.257E-01
  1.358E-03  1.405E-03  0.000E+00  0.000E+00  6.283E-02  1.257E-01
  1.405E-03  1.454E-03  0.000E+00  0.000E+00  6.283E-02  1.257E-01
  1.454E-03  1.504E-03  0.000E+00  0.000E+00  6.283E-02  1.257E-01
  1.504E-03  1.556E-03  0.000E+00  0.000E+00  6.283E-02  1.257E-01
  1.556E-03  1.610E-03  0.000E+00  0.000E+00  6.283E-02  1.257E-01
  1.610E-03  1.666E-03  0.000E+00  0.000E+00  6.283E-02  1.257E-01
  1.666E-03  1.723E-03  0.000E+00  0.000E+00  6.283E-02  1.257E-01
  1.723E-03  1.783E-03  0.000E+00  0.000E+00  6.283E-02  1.257E-01
  1.783E-03  1.845E-03  0.000E+00  0.000E+00  6.283E-02  1.257E-01
  1.845E-03  1.908E-03  0.000E+00  0.000E+00  6.283E-02  1.257E-01
  1.908E-03  1.974E-03  0.000E+00  0.000E+00  6.283E-02  1.257E-01
  1.974E-03  2.043E-03  0.000E+00  0.000E+00  6.283E-02  1.257E-01
  2.043E-03  2.113E-03  0.000E+00  0.000E+00  6.283E-02  1.257E-01
  2.113E-03  2.186E-03  0.000E+00  0.000E+00  6.283E-02  1.257E-01
  2.186E-03  2.262E-03  0.000E+00  0.000E+00  6.283E-02  1.257E-01
  2.262E-03  2.340E-03  0.000E+00  0.000E+00  6.283E-02  1.257E-01
  2.340E-03  2.421E-03  0.000E+00  0.000E+00  6.283E-02  1.257E-01
  2.421E-03  2.505E-03  0.000E+00  0.000E+00  6.283E-02  1.257E-01
  2.505E-03  2.592E-03  0.000E+00  0.000E+00  6.283E-02  1.257E-01
  2.592E-03  2.681E-03  0.000E+00  0.000E+00  6.283E-02  1.257E-01
  2.681E-03  2.774E-03  0.000E+00  0.000E+00  6.283E-02  1.257E-01
  2.774E-03  2.870E-03  0.000E+00  0.000E+00  6.283E-02  1.257E-01
  2.870E-03  2.969E-03  0.000E+00  0.000E+00  6.283E-02  1.257E-01
  2.969E-03  3.072E-03  0.000E+00  0.000E+00  6.283E-02  1.257E-01
  3.072E-03  3.178E-03  0.000E+00  0.000E+00  6.283E-02  1.257E-01
  3.178E-03  3.288E-03  0.000E+00  0.000E+00  6.283E-02  1.257E-01
  3.288E-03  3.402E-03  0.000E+00  0.000E+00  6.283E-02  1.257E-01
  3.402E-03  3.520E-03  0.000E+00  0.000E+00  6.283E-02  1.257E-01
  3.520E-03  3.642E-03  0.000E+00  0.000E+00  6.283E-02  1.257E-01
  3.642E-03  3.768E-03  0.000E+00  0.000E+00  6.283E-02  1.257E-01
  3.768E-03  3.898E-03  0.000E+00  0.000E+00  6.283E-02  1.257E-01
  3.898E-03  4.033E-03  0.000E+00  0.000E+00  6.283E-02  1.257E-01
  4.033E-03  4.172E-03  0.000E+00  0.000E+00  6.283E-02  1.257E-01
  4.172E-03  4.317E-03  0.000E+00  0.000E+00  6.283E-02  1.257E-01
  4.317E-03  4.466E-03  0.000E+00  0.000E+00  6.283E-02  1.257E-01
  4.466E-03  4.621E-03  0.000E+00  0.000E+00  6.283E-02  1.257E-01
  4.621E-03  4.781E-03  0.000E+00  0.000E+00  6.283E-02  1.257E-01
  4.781E-03  4.946E-03  0.000E+00  0.000E+00  6.283E-02  1.257E-01
  4.946E-03  5.117E-03  0.000E+00  0.000E+00  6.283E-02  1.257E-01
  5.117E-03  5.294E-03  0.000E+00  0.000E+00  6.283E-02  1.257E-01
  5.294E-03  5.477E-03  0.000E+00  0.000E+00  6.283E-02  1.257E-01
  5.477E-03  5.667E-03  0.000E+00  0.000E+00  6.283E-02  1.257E-01
  5.667E-03  5.863E-03  0.000E+00  0.000E+00  6.283E-02  1.257E-01
  5.863E-03  6.066E-03  0.000E+00  0.000E+00  6.283E-02  1.257E-01
  6.066E-03  6.275E-03  0.000E+00  0.000E+00  6.283E-02  1.257E-01
  6.275E-03  6.493E-03  0.000E+00  0.000E+00  6.283E-02  1.257E-01
  6.493E-03  6.717E-03  0.000E+00  0.000E+00  6.283E-02  1.257E-01
  6.717E-03  6.950E-03  0.000E+00  0.000E+00  6.283E-02  1.257E-01
  6.950E-03  7.190E-03  0.000E+00  0.000E+00  6.283E-02  1.257E-01
  7.190E-03  7.439E-03  0.000E+00  0.000E+00  6.283E-02  1.257E-01
  7.439E-03  7.696E-03  0.000E+00  0.000E+00  6.283E-02  1.257E-01
  7.696E-03  7.962E-03  0.000E+00  0.000E+00  6.283E-02  1.257E-01
  7.962E-03  8.238E-03  0.000E+00  0.000E+00  6.283E-02  1.257E-01
  8.238E-03  8.523E-03  0.000E+00  0.000E+00  6.283E-02  1.257E-01
  8.523E-03  8.818E-03  0.000E+00  0.000E+00  6.283E-02  1.257E-01
  8.818E-03  9.123E-03  0.000E+00  0.000E+00  6.283E-02  1.257E-01
  9.123E-03  9.438E-03  0.000E+00  0.000E+00  6.283E-02  1.257E-01
  9.438E-03  9.765E-03  0.000E+00  0.000E+00  6.283E-02  1.257E-01
  9.765E-03  1.010E-02  0.000E+00  0.000E+00  6.283E-02  1.257E-01
  1.010E-02  1.045E-02  0.000E+00  0.000E+00  6.283E-02  1.257E-01
  1.045E-02  1.081E-02  0.000E+00  0.000E+00  6.283E-02  1.257E-01
  1.081E-02  1.119E-02  0.000E+00  0.000E+00  6.283E-02  1.257E-01
  1.119E-02  1.158E-02  0.000E+00  0.000E+00  6.283E-02  1.257E-01
  1.158E-02  1.198E-02  0.000E+00  0.000E+00  6.283E-02  1.257E-01
  1.198E-02  1.239E-02  0.000E+00  0.000E+00  6.283E-02  1.257E-01
  1.239E-02  1.282E-02  0.000E+00  0.000E+00  6.283E-02  1.257E-01
  1.282E-02  1.326E-02  0.000E+00  0.000E+00  6.283E-02  1.257E-01
  1.326E-02  1.372E-02  0.000E+00  0.000E+00  6.283E-02  1.257E-01
  1.372E-02  1.420E-02  0.000E+00  0.000E+00  6.283E-02  1.257E-01
  1.420E-02  1.469E-02  0.000E+00  0.000E+00  6.283E-02  1.257E-01
  1.469E-02  1.519E-02  0.000E+00  0.000E+00  6.283E-02  1.257E-01
  1.519E-02  1.572E-02  0.000E+00  0.000E+00  6.283E-02  1.257E-01
  1.572E-02  1.626E-02  0.000E+00  0.000E+00  6.283E-02  1.257E-01
  1.626E-02  1.683E-02  0.000E+00  0.000E+00  6.283E-02  1.257E-01
  1.683E-02  1.741E-02  0.000E+00  0.000E+00  6.283E-02  1.257E-01
  1.741E-02  1.801E-02  0.000E+00  0.000E+00  6.283E-02  1.257E-01
  1.801E-02  1.863E-02  0.000E+00  0.000E+00  6.283E-02  1.257E-01
  1.863E-02  1.928E-02  7.523E-01  2.078E+01  6.283E-02  1.257E-01
  1.928E-02  1.995E-02  0.000E+00  0.000E+00  6.283E-02  1.257E-01
  1.995E-02  2.064E-02  0.000E+00  0.000E+00  6.283E-02  1.257E-01
  2.064E-02  2.135E-02  0.000E+00  0.000E+00  6.283E-02  1.257E-01
  2.135E-02  2.209E-02  0.000E+00  0.000E+00  6.283E-02  1.257E-01
  2.209E-02  2.285E-02  0.000E+00  0.000E+00  6.283E-02  1.257E-01
  2.285E-02  2.364E-02  0.000E+00  0.000E+00  6.283E-02  1.257E-01
  2.364E-02  2.446E-02  0.000E+00  0.000E+00  6.283E-02  1.257E-01
  2.446E-02  2.531E-02  0.000E+00  0.000E+00  6.283E-02  1.257E-01
  2.531E-02  2.618E-02  0.000E+00  0.000E+00  6.283E-02  1.257E-01
  2.618E-02  2.709E-02  0.000E+00  0.000E+00  6.283E-02  1.257E-01
  2.709E-02  2.803E-02  0.000E+00  0.000E+00  6.283E-02  1.257E-01
  2.803E-02  2.900E-02  0.000E+00  0.000E+00  6.283E-02  1.257E-01
  2.900E-02  3.000E-02  0.000E+00  0.000E+00  6.283E-02  1.257E-01
  3.000E-02  3.000E-02  0.000E+00  0.000E+00  6.283E-02  1.257E-01

 # Block n:            3    0.125663713      :  0.188495576    
  1.000E-03  1.035E-03  0.000E+00  0.000E+00  1.257E-01  1.885E-01
  1.035E-03  1.070E-03  0.000E+00  0.000E+00  1.257E-01  1.885E-01
  1.070E-03  1.107E-03  0.000E+00  0.000E+00  1.257E-01  1.885E-01
  1.107E-03  1.146E-03  0.000E+00  0.000E+00  1.257E-01  1.885E-01
  1.146E-03  1.185E-03  0.000E+00  0.000E+00  1.257E-01  1.885E-01
  1.185E-03  1.226E-03  0.000E+00  0.000E+00  1.257E-01  1.885E-01
  1.226E-03  1.269E-03  0.000E+00  0.000E+00  1.257E-01  1.885E-01
  1.269E-03  1.313E-03  0.000E+00  0.000E+00  1.257E-01  1.885E-01
  1.313E-03  1.358E-03  0.000E+00  0.000E+00  1.257E-01  1.885E-01
  1.358E-03  1.405E-03  0.000E+00  0.000E+00  1.257E-01  1.885E-01
  1.405E-03  1.454E-03  0.000E+00  0.000E+00  1.257E-01  1.885E-01
  1.454E-03  1.504E-03  0.000E+00  0.000E+00  1.257E-01  1.885E-01
  1.504E-03  1.556E-03  0.000E+00  0.000E+00  1.257E-01  1.885E-01
  1.556E-03  1.610E-03  0.000E+00  0.000E+00  1.257E-01  1.885E-01
  1.610E-03  1.666E-03  0.000E+00  0.000E+00  1.257E-01  1.885E-01
  1.666E-03  1.723E-03  0.000E+00  0.000E+00  1.257E-01  1.885E-01
  1.723E-03  1.783E-03  0.000E+00  0.000E+00  1.257E-01  1.885E-01
  1.783E-03  1.845E-03  0.000E+00  0.000E+00  1.257E-01  1.885E-01
  1.845E-03  1.908E-03  0.000E+00  0.000E+00  1.257E-01  1.885E-01
  1.908E-03  1.974E-03  0.000E+00  0.000E+00  1.257E-01  1.885E-01
  1.974E-03  2.043E-03  0.000E+00  0.000E+00  1.257E-01  1.885E-01
  2.043E-03  2.113E-03  0.000E+00  0.000E+00  1.257E-01  1.885E-01
  2.113E-03  2.186E-03  0.000E+00  0.000E+00  1.257E-01  1.885E-01
